# First column is time, second column is the perturbation of detonation velocity.
  0.0000000000000000e+00   1.0000000000000000e-10
  5.0000000000000001e-03   1.0036295895245931e-10
  1.0000000000000000e-02   1.0055708255086270e-10
  1.4999999999999999e-02   1.0075058637843699e-10
  2.0000000000000000e-02   1.0100453355290238e-10
  2.5000000000000001e-02   1.0132225903264937e-10
  2.9999999999999999e-02   1.0168153612232901e-10
  3.5000000000000003e-02   1.0205407133871838e-10
  4.0000000000000001e-02   1.0241617809863451e-10
  4.4999999999999998e-02   1.0275357872985690e-10
  5.0000000000000003e-02   1.0306242582881776e-10
  5.5000000000000000e-02   1.0334795410484371e-10
  5.9999999999999998e-02   1.0362172549571174e-10
  6.5000000000000002e-02   1.0389819175232938e-10
  7.0000000000000007e-02   1.0419119754408104e-10
  7.4999999999999997e-02   1.0451099251807820e-10
  8.0000000000000002e-02   1.0486223410915571e-10
  8.5000000000000006e-02   1.0524330037898101e-10
  8.9999999999999997e-02   1.0564699368933822e-10
  9.5000000000000001e-02   1.0606244049299408e-10
  1.0000000000000001e-01   1.0647774202305942e-10
  1.0500000000000000e-01   1.0688276902810205e-10
  1.1000000000000000e-01   1.0727146598794251e-10
  1.1500000000000000e-01   1.0764314851632222e-10
  1.2000000000000000e-01   1.0800251664550061e-10
  1.2500000000000000e-01   1.0835840996328953e-10
  1.3000000000000000e-01   1.0872162507557725e-10
  1.3500000000000001e-01   1.0910233064797514e-10
  1.4000000000000001e-01   1.0950769940775809e-10
  1.4499999999999999e-01   1.0994031154247403e-10
  1.4999999999999999e-01   1.1039768807509549e-10
  1.5500000000000000e-01   1.1087303563737650e-10
  1.6000000000000000e-01   1.1135699388273347e-10
  1.6500000000000001e-01   1.1183994348286681e-10
  1.7000000000000001e-01   1.1231431077456747e-10
  1.7500000000000002e-01   1.1277632103407542e-10
  1.7999999999999999e-01   1.1322679864261978e-10
  1.8500000000000000e-01   1.1367085057751425e-10
  1.9000000000000000e-01   1.1411654026619916e-10
  1.9500000000000001e-01   1.1457289632249098e-10
  2.0000000000000001e-01   1.1504774927479204e-10
  2.0500000000000002e-01   1.1554591617275483e-10
  2.0999999999999999e-01   1.1606815504956210e-10
  2.1500000000000000e-01   1.1661111559725744e-10
  2.2000000000000000e-01   1.1716826857803557e-10
  2.2500000000000001e-01   1.1773156397723608e-10
  2.3000000000000001e-01   1.1829340177312669e-10
  2.3500000000000001e-01   1.1884843706502971e-10
  2.3999999999999999e-01   1.1939479487764031e-10
  2.4500000000000000e-01   1.1993442304778593e-10
  2.5000000000000000e-01   1.2047252478922019e-10
  2.5500000000000000e-01   1.2101623327948905e-10
  2.6000000000000001e-01   1.2157286615171021e-10
  2.6500000000000001e-01   1.2214818767536651e-10
  2.7000000000000002e-01   1.2274509183780056e-10
  2.7500000000000002e-01   1.2336300708136920e-10
  2.8000000000000003e-01   1.2399814279342181e-10
  2.8500000000000003e-01   1.2464449380867748e-10
  2.8999999999999998e-01   1.2529534135420852e-10
  2.9499999999999998e-01   1.2594487857413804e-10
  2.9999999999999999e-01   1.2658957023318984e-10
  3.0499999999999999e-01   1.2722893108271095e-10
  3.1000000000000000e-01   1.2786555507440034e-10
  3.1500000000000000e-01   1.2850441081590634e-10
  3.2000000000000001e-01   1.2915159273869509e-10
  3.2500000000000001e-01   1.2981284125899500e-10
  3.3000000000000002e-01   1.3049219080947496e-10
  3.3500000000000002e-01   1.3119106349330522e-10
  3.4000000000000002e-01   1.3190801063532754e-10
  3.4500000000000003e-01   1.3263914436378637e-10
  3.5000000000000003e-01   1.3337913597359787e-10
  3.5499999999999998e-01   1.3412252669090550e-10
  3.5999999999999999e-01   1.3486502974543835e-10
  3.6499999999999999e-01   1.3560451430661717e-10
  3.7000000000000000e-01   1.3634144674174626e-10
  3.7500000000000000e-01   1.3707870043006550e-10
  3.8000000000000000e-01   1.3782079820312426e-10
  3.8500000000000001e-01   1.3857278451924404e-10
  3.9000000000000001e-01   1.3933900666628043e-10
  3.9500000000000002e-01   1.4012209759210849e-10
  4.0000000000000002e-01   1.4092239627684252e-10
  4.0500000000000003e-01   1.4173793045532552e-10
  4.1000000000000003e-01   1.4256494902238460e-10
  4.1500000000000004e-01   1.4339886109151363e-10
  4.1999999999999998e-01   1.4423534622375546e-10
  4.2499999999999999e-01   1.4507136665649251e-10
  4.2999999999999999e-01   1.4590584370085811e-10
  4.3500000000000000e-01   1.4673984744792502e-10
  4.4000000000000000e-01   1.4757626918237966e-10
  4.4500000000000001e-01   1.4841906985207827e-10
  4.5000000000000001e-01   1.4927229599164015e-10
  4.5500000000000002e-01   1.5013910409985508e-10
  4.6000000000000002e-01   1.5102102527175181e-10
  4.6500000000000002e-01   1.5191763782855730e-10
  4.7000000000000003e-01   1.5282671364470052e-10
  4.7500000000000003e-01   1.5374478924439418e-10
  4.7999999999999998e-01   1.5466801317004176e-10
  4.8499999999999999e-01   1.5559305984414597e-10
  4.8999999999999999e-01   1.5651789058883137e-10
  4.9500000000000000e-01   1.5744218536299649e-10
  5.0000000000000000e-01   1.5836735235925019e-10
  5.0500000000000000e-01   1.5929612577782095e-10
  5.1000000000000001e-01   1.6023185973826673e-10
  5.1500000000000001e-01   1.6117769534277382e-10
  5.2000000000000002e-01   1.6213580279585850e-10
  5.2500000000000002e-01   1.6310687661134660e-10
  5.3000000000000003e-01   1.6408999643149140e-10
  5.3500000000000003e-01   1.6508287566720582e-10
  5.4000000000000004e-01   1.6608242726403587e-10
  5.4500000000000004e-01   1.6708550257994888e-10
  5.5000000000000004e-01   1.6808962248267890e-10
  5.5500000000000005e-01   1.6909352702076087e-10
  5.6000000000000005e-01   1.7009741835383003e-10
  5.6500000000000006e-01   1.7110284832329333e-10
  5.7000000000000006e-01   1.7211228801623173e-10
  5.7500000000000007e-01   1.7312849119852222e-10
  5.7999999999999996e-01   1.7415380918402278e-10
  5.8499999999999996e-01   1.7518962155778533e-10
  5.8999999999999997e-01   1.7623601471161778e-10
  5.9499999999999997e-01   1.7729177727289554e-10
  5.9999999999999998e-01   1.7835470407484145e-10
  6.0499999999999998e-01   1.7942212717986927e-10
  6.0999999999999999e-01   1.8049154089423484e-10
  6.1499999999999999e-01   1.8156116932557949e-10
  6.2000000000000000e-01   1.8263034321831754e-10
  6.2500000000000000e-01   1.8369960213956234e-10
  6.3000000000000000e-01   1.8477050591628270e-10
  6.3500000000000001e-01   1.8584520885839718e-10
  6.4000000000000001e-01   1.8692590512640897e-10
  6.4500000000000002e-01   1.8801428101797731e-10
  6.5000000000000002e-01   1.8911110425225857e-10
  6.5500000000000003e-01   1.9021604386623350e-10
  6.6000000000000003e-01   1.9132775669434978e-10
  6.6500000000000004e-01   1.9244421192356682e-10
  6.7000000000000004e-01   1.9356316944042530e-10
  6.7500000000000004e-01   1.9468269362152280e-10
  6.8000000000000005e-01   1.9580157931852461e-10
  6.8500000000000005e-01   1.9691959134917502e-10
  6.9000000000000006e-01   1.9803746610633639e-10
  6.9500000000000006e-01   1.9915668200928094e-10
  7.0000000000000007e-01   2.0027906030095654e-10
  7.0499999999999996e-01   2.0140629621199485e-10
  7.0999999999999996e-01   2.0253953409070843e-10
  7.1499999999999997e-01   2.0367908625249013e-10
  7.1999999999999997e-01   2.0482435814307194e-10
  7.2499999999999998e-01   2.0597399147157429e-10
  7.2999999999999998e-01   2.0712618477777516e-10
  7.3499999999999999e-01   2.0827910990455710e-10
  7.3999999999999999e-01   2.0943132246722492e-10
  7.4500000000000000e-01   2.1058206887861363e-10
  7.5000000000000000e-01   2.1173141999900272e-10
  7.5500000000000000e-01   2.1288020480229109e-10
  7.6000000000000001e-01   2.1402976580889534e-10
  7.6500000000000001e-01   2.1518159977911829e-10
  7.7000000000000002e-01   2.1633697255708857e-10
  7.7500000000000002e-01   2.1749660045192429e-10
  7.8000000000000003e-01   2.1866047196110557e-10
  7.8500000000000003e-01   2.1982784805928848e-10
  7.9000000000000004e-01   2.2099743566405365e-10
  7.9500000000000004e-01   2.2216768786083309e-10
  8.0000000000000004e-01   2.2333715570414736e-10
  8.0500000000000005e-01   2.2450480638723341e-10
  8.1000000000000005e-01   2.2567023311260297e-10
  8.1500000000000006e-01   2.2683370998160373e-10
  8.2000000000000006e-01   2.2799608347503065e-10
  8.2500000000000007e-01   2.2915853121435589e-10
  8.3000000000000007e-01   2.3032224934445371e-10
  8.3499999999999996e-01   2.3148814502598350e-10
  8.3999999999999997e-01   2.3265660702855881e-10
  8.4499999999999997e-01   2.3382740666235621e-10
  8.4999999999999998e-01   2.3499974872677748e-10
  8.5499999999999998e-01   2.3617245588639516e-10
  8.5999999999999999e-01   2.3734423864366398e-10
  8.6499999999999999e-01   2.3851398414534531e-10
  8.7000000000000000e-01   2.3968099457119162e-10
  8.7500000000000000e-01   2.4084511991056061e-10
  8.8000000000000000e-01   2.4200675669828280e-10
  8.8500000000000001e-01   2.4316671701011982e-10
  8.9000000000000001e-01   2.4432600274809980e-10
  8.9500000000000002e-01   2.4548554172752021e-10
  9.0000000000000002e-01   2.4664594947698344e-10
  9.0500000000000003e-01   2.4780737264054572e-10
  9.1000000000000003e-01   2.4896944879498856e-10
  9.1500000000000004e-01   2.5013138876762138e-10
  9.2000000000000004e-01   2.5129215822190359e-10
  9.2500000000000004e-01   2.5245071236038852e-10
  9.3000000000000005e-01   2.5360622633707791e-10
  9.3500000000000005e-01   2.5475826670397498e-10
  9.4000000000000006e-01   2.5590686487217438e-10
  9.4500000000000006e-01   2.5705247803715354e-10
  9.5000000000000007e-01   2.5819585021815743e-10
  9.5500000000000007e-01   2.5933780944173655e-10
  9.5999999999999996e-01   2.6047905121264561e-10
  9.6499999999999997e-01   2.6161996018106410e-10
  9.6999999999999997e-01   2.6276051128177269e-10
  9.7499999999999998e-01   2.6390027148746679e-10
  9.7999999999999998e-01   2.6503849875684890e-10
  9.8499999999999999e-01   2.6617431174251411e-10
  9.8999999999999999e-01   2.6730688778200755e-10
  9.9500000000000000e-01   2.6843564123524806e-10
  1.0000000000000000e+00   2.6956034033584191e-10
  1.0050000000000001e+00   2.7068113659581708e-10
  1.0100000000000000e+00   2.7179850237652725e-10
  1.0150000000000001e+00   2.7291309421172017e-10
  1.0200000000000000e+00   2.7402557660381736e-10
  1.0249999999999999e+00   2.7513644938010252e-10
  1.0300000000000000e+00   2.7624591956357757e-10
  1.0349999999999999e+00   2.7735384690391861e-10
  1.0400000000000000e+00   2.7845977382471497e-10
  1.0449999999999999e+00   2.7956303014410631e-10
  1.0500000000000000e+00   2.8066288542885770e-10
  1.0549999999999999e+00   2.8175871132191006e-10
  1.0600000000000001e+00   2.8285011493455301e-10
  1.0649999999999999e+00   2.8393701243710784e-10
  1.0700000000000001e+00   2.8501962712628058e-10
  1.0750000000000000e+00   2.8609841467930512e-10
  1.0800000000000001e+00   2.8717393554258184e-10
  1.0850000000000000e+00   2.8824670638143832e-10
  1.0900000000000001e+00   2.8931706654559436e-10
  1.0950000000000000e+00   2.9038509086101996e-10
  1.1000000000000001e+00   2.9145056810632924e-10
  1.1050000000000000e+00   2.9251304833154578e-10
  1.1100000000000001e+00   2.9357194570889604e-10
  1.1150000000000000e+00   2.9462667079415139e-10
  1.1200000000000001e+00   2.9567675986095890e-10
  1.1250000000000000e+00   2.9672197063133772e-10
  1.1300000000000001e+00   2.9776232263312673e-10
  1.1350000000000000e+00   2.9879807423483979e-10
  1.1400000000000001e+00   2.9982964370662831e-10
  1.1450000000000000e+00   3.0085749475011653e-10
  1.1500000000000001e+00   3.0188201478111625e-10
  1.1550000000000000e+00   3.0290341512930955e-10
  1.1599999999999999e+00   3.0392167623620900e-10
  1.1650000000000000e+00   3.0493654954153791e-10
  1.1699999999999999e+00   3.0594761391629883e-10
  1.1750000000000000e+00   3.0695437159091299e-10
  1.1799999999999999e+00   3.0795635958197415e-10
  1.1850000000000001e+00   3.0895324965063965e-10
  1.1899999999999999e+00   3.0994491335777051e-10
  1.1950000000000001e+00   3.1093143778162018e-10
  1.2000000000000000e+00   3.1191308962921042e-10
  1.2050000000000001e+00   3.1289023781466459e-10
  1.2100000000000000e+00   3.1386325415585682e-10
  1.2150000000000001e+00   3.1483241645911066e-10
  1.2200000000000000e+00   3.1579783696980320e-10
  1.2250000000000001e+00   3.1675943244816525e-10
  1.2300000000000000e+00   3.1771694174416883e-10
  1.2350000000000001e+00   3.1866998527267454e-10
  1.2400000000000000e+00   3.1961815099116602e-10
  1.2450000000000001e+00   3.2056108563812306e-10
  1.2500000000000000e+00   3.2149856937247919e-10
  1.2550000000000001e+00   3.2243055655465829e-10
  1.2600000000000000e+00   3.2335717397766348e-10
  1.2650000000000001e+00   3.2427867823635757e-10
  1.2700000000000000e+00   3.2519538359162693e-10
  1.2750000000000001e+00   3.2610757836511846e-10
  1.2800000000000000e+00   3.2701545009028043e-10
  1.2849999999999999e+00   3.2791903695951000e-10
  1.2900000000000000e+00   3.2881821632960559e-10
  1.2949999999999999e+00   3.2971273191251385e-10
  1.3000000000000000e+00   3.3060225202865044e-10
  1.3049999999999999e+00   3.3148644413932229e-10
  1.3100000000000001e+00   3.3236504744380298e-10
  1.3149999999999999e+00   3.3323792633025975e-10
  1.3200000000000001e+00   3.3410509253696469e-10
  1.3250000000000000e+00   3.3496669168464666e-10
  1.3300000000000001e+00   3.3582295844452179e-10
  1.3350000000000000e+00   3.3667415193928805e-10
  1.3400000000000001e+00   3.3752048733001370e-10
  1.3450000000000000e+00   3.3836207997321245e-10
  1.3500000000000001e+00   3.3919891505392711e-10
  1.3550000000000000e+00   3.4003084915631607e-10
  1.3600000000000001e+00   3.4085764244427165e-10
  1.3650000000000000e+00   3.4167901288370018e-10
  1.3700000000000001e+00   3.4249469895113702e-10
  1.3750000000000000e+00   3.4330451565925478e-10
  1.3800000000000001e+00   3.4410839077188367e-10
  1.3850000000000000e+00   3.4490637318460318e-10
  1.3900000000000001e+00   3.4569861230668213e-10
  1.3950000000000000e+00   3.4648531421213639e-10
  1.4000000000000001e+00   3.4726668568106857e-10
  1.4050000000000000e+00   3.4804287980101956e-10
  1.4099999999999999e+00   3.4881395601930442e-10
  1.4150000000000000e+00   3.4957986371568641e-10
  1.4199999999999999e+00   3.5034045249999251e-10
  1.4250000000000000e+00   3.5109550598724905e-10
  1.4299999999999999e+00   3.5184479031572976e-10
  1.4350000000000001e+00   3.5258810542729137e-10
  1.4399999999999999e+00   3.5332532682974395e-10
  1.4450000000000001e+00   3.5405642819113569e-10
  1.4500000000000000e+00   3.5478147996276707e-10
  1.4550000000000001e+00   3.5550062507254488e-10
  1.4600000000000000e+00   3.5621403815299426e-10
  1.4650000000000001e+00   3.5692187849168991e-10
  1.4700000000000000e+00   3.5762424808111573e-10
  1.4750000000000001e+00   3.5832116459274438e-10
  1.4800000000000000e+00   3.5901255525740469e-10
  1.4850000000000001e+00   3.5969827248308743e-10
  1.4900000000000000e+00   3.6037812684636352e-10
  1.4950000000000001e+00   3.6105192909150534e-10
  1.5000000000000000e+00   3.6171953087848478e-10
  1.5050000000000001e+00   3.6238085462461626e-10
  1.5100000000000000e+00   3.6303590566666500e-10
  1.5150000000000001e+00   3.6368476437731886e-10
  1.5200000000000000e+00   3.6432756070831430e-10
  1.5250000000000001e+00   3.6496443773855642e-10
  1.5300000000000000e+00   3.6559551322450462e-10
  1.5350000000000001e+00   3.6622084835690075e-10
  1.5400000000000000e+00   3.6684043093938203e-10
  1.5449999999999999e+00   3.6745417655910817e-10
  1.5500000000000000e+00   3.6806194693369655e-10
  1.5549999999999999e+00   3.6866358055776956e-10
  1.5600000000000001e+00   3.6925892799245087e-10
  1.5649999999999999e+00   3.6984788326523605e-10
  1.5700000000000001e+00   3.7043040402731106e-10
  1.5750000000000000e+00   3.7100651600874477e-10
  1.5800000000000001e+00   3.7157630117971799e-10
  1.5850000000000000e+00   3.7213987291909961e-10
  1.5900000000000001e+00   3.7269734448348953e-10
  1.5950000000000000e+00   3.7324879847561889e-10
  1.6000000000000001e+00   3.7379426454367887e-10
  1.6050000000000000e+00   3.7433371036975074e-10
  1.6100000000000001e+00   3.7486704769387526e-10
  1.6150000000000000e+00   3.7539415149202130e-10
  1.6200000000000001e+00   3.7591488735373591e-10
  1.6250000000000000e+00   3.7642914030276465e-10
  1.6300000000000001e+00   3.7693683816227473e-10
  1.6350000000000000e+00   3.7743796406963504e-10
  1.6400000000000001e+00   3.7793255548739561e-10
  1.6450000000000000e+00   3.7842069034809859e-10
  1.6500000000000001e+00   3.7890246401174093e-10
  1.6550000000000000e+00   3.7937796279016789e-10
  1.6600000000000001e+00   3.7984724043760222e-10
  1.6650000000000000e+00   3.8031030311016312e-10
  1.6699999999999999e+00   3.8076710611877155e-10
  1.6750000000000000e+00   3.8121756289566665e-10
  1.6799999999999999e+00   3.8166156367725336e-10
  1.6850000000000001e+00   3.8209899916949794e-10
  1.6899999999999999e+00   3.8252978341820422e-10
  1.6950000000000001e+00   3.8295387046796857e-10
  1.7000000000000000e+00   3.8337126103251586e-10
  1.7050000000000001e+00   3.8378199788756663e-10
  1.7100000000000000e+00   3.8418615141815417e-10
  1.7150000000000001e+00   3.8458379905134879e-10
  1.7200000000000000e+00   3.8497500364840831e-10
  1.7250000000000001e+00   3.8535979602653767e-10
  1.7300000000000000e+00   3.8573816564401708e-10
  1.7350000000000001e+00   3.8611006142050996e-10
  1.7400000000000000e+00   3.8647540219493629e-10
  1.7450000000000001e+00   3.8683409404586768e-10
  1.7500000000000000e+00   3.8718605014995850e-10
  1.7550000000000001e+00   3.8753120837924978e-10
  1.7600000000000000e+00   3.8786954251914810e-10
  1.7650000000000001e+00   3.8820106462902935e-10
  1.7700000000000000e+00   3.8852581824804335e-10
  1.7750000000000001e+00   3.8884386433501997e-10
  1.7800000000000000e+00   3.8915526350322240e-10
  1.7850000000000001e+00   3.8946005888574871e-10
  1.7900000000000000e+00   3.8975826368807137e-10
  1.7949999999999999e+00   3.9004985624838593e-10
  1.8000000000000000e+00   3.9033478355660695e-10
  1.8049999999999999e+00   3.9061297214262149e-10
  1.8100000000000001e+00   3.9088434352415678e-10
  1.8149999999999999e+00   3.9114883040393349e-10
  1.8200000000000001e+00   3.9140638974122383e-10
  1.8250000000000000e+00   3.9165700968193064e-10
  1.8300000000000001e+00   3.9190070888200499e-10
  1.8350000000000000e+00   3.9213752861195072e-10
  1.8400000000000001e+00   3.9236751973560953e-10
  1.8450000000000000e+00   3.9259072781312707e-10
  1.8500000000000001e+00   3.9280717992723262e-10
  1.8550000000000000e+00   3.9301687631472887e-10
  1.8600000000000001e+00   3.9321978865026221e-10
  1.8650000000000000e+00   3.9341586519213044e-10
  1.8700000000000001e+00   3.9360504136151285e-10
  1.8750000000000000e+00   3.9378725307680070e-10
  1.8800000000000001e+00   3.9396244958930706e-10
  1.8850000000000000e+00   3.9413060278228537e-10
  1.8900000000000001e+00   3.9429171082700324e-10
  1.8950000000000000e+00   3.9444579549460769e-10
  1.9000000000000001e+00   3.9459289395239576e-10
  1.9050000000000000e+00   3.9473304716026185e-10
  1.9100000000000001e+00   3.9486628772863030e-10
  1.9150000000000000e+00   3.9499263014192675e-10
  1.9199999999999999e+00   3.9511206560238403e-10
  1.9250000000000000e+00   3.9522456258279888e-10
  1.9299999999999999e+00   3.9533007278652340e-10
  1.9350000000000001e+00   3.9542854093588921e-10
  1.9399999999999999e+00   3.9551991594676894e-10
  1.9450000000000001e+00   3.9560416079014673e-10
  1.9500000000000000e+00   3.9568125873437267e-10
  1.9550000000000001e+00   3.9575121459141573e-10
  1.9600000000000000e+00   3.9581405081978701e-10
  1.9650000000000001e+00   3.9586979956452755e-10
  1.9700000000000000e+00   3.9591849264879373e-10
  1.9750000000000001e+00   3.9596015195869921e-10
  1.9800000000000000e+00   3.9599478249670389e-10
  1.9850000000000001e+00   3.9602236967627868e-10
