# First column is time, second column is the perturbation of detonation velocity.
  0.0000000000000000e+00   1.0000000000000000e-10
  5.0000000000000001e-03   1.0023997889566254e-10
  1.0000000000000000e-02   1.0048717599213980e-10
  1.4999999999999999e-02   1.0087639815051484e-10
  2.0000000000000000e-02   1.0116332551889450e-10
  2.5000000000000001e-02   1.0137371790051235e-10
  2.9999999999999999e-02   1.0169140252332681e-10
  3.5000000000000003e-02   1.0205895925237540e-10
  4.0000000000000001e-02   1.0233099029449609e-10
  4.4999999999999998e-02   1.0259836994645894e-10
  5.0000000000000003e-02   1.0295788100678422e-10
  5.5000000000000000e-02   1.0330535092322296e-10
  5.9999999999999998e-02   1.0359063892711478e-10
  6.5000000000000002e-02   1.0391472197430837e-10
  7.0000000000000007e-02   1.0429000147965786e-10
  7.4999999999999997e-02   1.0462979120745910e-10
  8.0000000000000002e-02   1.0494896346322979e-10
  8.5000000000000006e-02   1.0531457095727227e-10
  8.9999999999999997e-02   1.0569528978409504e-10
  9.5000000000000001e-02   1.0604531785921351e-10
  1.0000000000000001e-01   1.0640355024966114e-10
  1.0500000000000000e-01   1.0679640223774657e-10
  1.1000000000000000e-01   1.0718466808206897e-10
  1.1500000000000000e-01   1.0755815110143784e-10
  1.2000000000000000e-01   1.0795186881924258e-10
  1.2500000000000000e-01   1.0836423319796511e-10
  1.3000000000000000e-01   1.0876730612053899e-10
  1.3500000000000001e-01   1.0917049939357580e-10
  1.4000000000000001e-01   1.0959397434706711e-10
  1.4499999999999999e-01   1.1002443503414044e-10
  1.4999999999999999e-01   1.1044941912655746e-10
  1.5500000000000000e-01   1.1088341439946250e-10
  1.6000000000000000e-01   1.1133252122391324e-10
  1.6500000000000001e-01   1.1178335266232828e-10
  1.7000000000000001e-01   1.1223490171031424e-10
  1.7500000000000002e-01   1.1269843455257071e-10
  1.7999999999999999e-01   1.1317166375425497e-10
  1.8500000000000000e-01   1.1364622048969002e-10
  1.9000000000000000e-01   1.1412646197555492e-10
  1.9500000000000001e-01   1.1461803643718310e-10
  2.0000000000000001e-01   1.1511590779374226e-10
  2.0500000000000002e-01   1.1561704479767258e-10
  2.0999999999999999e-01   1.1612649639539852e-10
  2.1500000000000000e-01   1.1664537724503795e-10
  2.2000000000000000e-01   1.1716938064038363e-10
  2.2500000000000001e-01   1.1769893131736147e-10
  2.3000000000000001e-01   1.1823748856104129e-10
  2.3500000000000001e-01   1.1878381307362660e-10
  2.3999999999999999e-01   1.1933554916749989e-10
  2.4500000000000000e-01   1.1989445878932502e-10
  2.5000000000000000e-01   1.2046202833538007e-10
  2.5500000000000000e-01   1.2103648929696643e-10
  2.6000000000000001e-01   1.2161722234015874e-10
  2.6500000000000001e-01   1.2220590900639547e-10
  2.7000000000000002e-01   1.2280264148723262e-10
  2.7500000000000002e-01   1.2340610216162536e-10
  2.8000000000000003e-01   1.2401665727807096e-10
  2.8500000000000003e-01   1.2463532843887979e-10
  2.8999999999999998e-01   1.2526158558663398e-10
  2.9499999999999998e-01   1.2589480825046215e-10
  2.9999999999999999e-01   1.2653565186234276e-10
  3.0499999999999999e-01   1.2718447685412485e-10
  3.1000000000000000e-01   1.2784069302579509e-10
  3.1500000000000000e-01   1.2850421579707093e-10
  3.2000000000000001e-01   1.2917558012495341e-10
  3.2500000000000001e-01   1.2985473153599147e-10
  3.3000000000000002e-01   1.3054127910162789e-10
  3.3500000000000002e-01   1.3123539965454362e-10
  3.4000000000000002e-01   1.3193737533992124e-10
  3.4500000000000003e-01   1.3264699528552119e-10
  3.5000000000000003e-01   1.3336409975326147e-10
  3.5499999999999998e-01   1.3408890795277421e-10
  3.5999999999999999e-01   1.3482148505335695e-10
  3.6499999999999999e-01   1.3556162954623003e-10
  3.7000000000000000e-01   1.3630933567355648e-10
  3.7500000000000000e-01   1.3706475237120143e-10
  3.8000000000000000e-01   1.3782782161902098e-10
  3.8500000000000001e-01   1.3859841474759983e-10
  3.9000000000000001e-01   1.3937658546199420e-10
  3.9500000000000002e-01   1.4016238759241248e-10
  4.0000000000000002e-01   1.4095572283444902e-10
  4.0500000000000003e-01   1.4175653128397804e-10
  4.1000000000000003e-01   1.4256485996119942e-10
  4.1500000000000004e-01   1.4338068946900456e-10
  4.1999999999999998e-01   1.4420392814100105e-10
  4.2499999999999999e-01   1.4503455361570879e-10
  4.2999999999999999e-01   1.4587257717743830e-10
  4.3500000000000000e-01   1.4671793968556079e-10
  4.4000000000000000e-01   1.4757057005972308e-10
  4.4500000000000001e-01   1.4843045260362298e-10
  4.5000000000000001e-01   1.4929756062832986e-10
  4.5500000000000002e-01   1.5017182108966216e-10
  4.6000000000000002e-01   1.5105317827595582e-10
  4.6500000000000002e-01   1.5194160421671288e-10
  4.7000000000000003e-01   1.5283704436505650e-10
  4.7500000000000003e-01   1.5373942474195191e-10
  4.7999999999999998e-01   1.5464869378229887e-10
  4.8499999999999999e-01   1.5556480469086992e-10
  4.8999999999999999e-01   1.5648768677011357e-10
  4.9500000000000000e-01   1.5741726790150498e-10
  5.0000000000000000e-01   1.5835349133838884e-10
  5.0500000000000000e-01   1.5929629284869293e-10
  5.1000000000000001e-01   1.6024559376102532e-10
  5.1500000000000001e-01   1.6120132147221940e-10
  5.2000000000000002e-01   1.6216340929287812e-10
  5.2500000000000002e-01   1.6313178003055675e-10
  5.3000000000000003e-01   1.6410635088682785e-10
  5.3500000000000003e-01   1.6508704540050215e-10
  5.4000000000000004e-01   1.6607378618542502e-10
  5.4500000000000004e-01   1.6706648746282647e-10
  5.5000000000000004e-01   1.6806506315208920e-10
  5.5500000000000005e-01   1.6906943069225009e-10
  5.6000000000000005e-01   1.7007950352853646e-10
  5.6500000000000006e-01   1.7109519027866408e-10
  5.7000000000000006e-01   1.7211640114268388e-10
  5.7500000000000007e-01   1.7314304685827583e-10
  5.7999999999999996e-01   1.7417503393812030e-10
  5.8499999999999996e-01   1.7521226698454253e-10
  5.8999999999999997e-01   1.7625465198724817e-10
  5.9499999999999997e-01   1.7730209363019813e-10
  5.9999999999999998e-01   1.7835449351433409e-10
  6.0499999999999998e-01   1.7941175295451698e-10
  6.0999999999999999e-01   1.8047377373328075e-10
  6.1499999999999999e-01   1.8154045574578972e-10
  6.2000000000000000e-01   1.8261169718043543e-10
  6.2500000000000000e-01   1.8368739648533660e-10
  6.3000000000000000e-01   1.8476745177877143e-10
  6.3500000000000001e-01   1.8585175954664202e-10
  6.4000000000000001e-01   1.8694021560583758e-10
  6.4500000000000002e-01   1.8803271599622817e-10
  6.5000000000000002e-01   1.8912915606316540e-10
  6.5500000000000003e-01   1.9022943011261117e-10
  6.6000000000000003e-01   1.9133343236254568e-10
  6.6500000000000004e-01   1.9244105706124308e-10
  6.7000000000000004e-01   1.9355219779532019e-10
  6.7500000000000004e-01   1.9466674769992598e-10
  6.8000000000000005e-01   1.9578460006423160e-10
  6.8500000000000005e-01   1.9690564809416949e-10
  6.9000000000000006e-01   1.9802978459455475e-10
  6.9500000000000006e-01   1.9915690235274359e-10
  7.0000000000000007e-01   2.0028689438539745e-10
  7.0499999999999996e-01   2.0141965365577779e-10
  7.0999999999999996e-01   2.0255507305044635e-10
  7.1499999999999997e-01   2.0369304570736160e-10
  7.1999999999999997e-01   2.0483346503204866e-10
  7.2499999999999998e-01   2.0597622451665702e-10
  7.2999999999999998e-01   2.0712121786475232e-10
  7.3499999999999999e-01   2.0826833918575039e-10
  7.3999999999999999e-01   2.0941748292011096e-10
  7.4500000000000000e-01   2.1056854378260100e-10
  7.5000000000000000e-01   2.1172141691536089e-10
  7.5500000000000000e-01   2.1287599796403739e-10
  7.6000000000000001e-01   2.1403218300384027e-10
  7.6500000000000001e-01   2.1518986856797761e-10
  7.7000000000000002e-01   2.1634895176558451e-10
  7.7500000000000002e-01   2.1750933028885095e-10
  7.8000000000000003e-01   2.1867090237688181e-10
  7.8500000000000003e-01   2.1983356687885299e-10
  7.9000000000000004e-01   2.2099722332125924e-10
  7.9500000000000004e-01   2.2216177189123632e-10
  8.0000000000000004e-01   2.2332711343797748e-10
  8.0500000000000005e-01   2.2449314953431540e-10
  8.1000000000000005e-01   2.2565978250404451e-10
  8.1500000000000006e-01   2.2682691540795200e-10
  8.2000000000000006e-01   2.2799445206687514e-10
  8.2500000000000007e-01   2.2916229710521080e-10
  8.3000000000000007e-01   2.3033035595629293e-10
  8.3499999999999996e-01   2.3149853485982007e-10
  8.3999999999999997e-01   2.3266674089009169e-10
  8.4499999999999997e-01   2.3383488197965091e-10
  8.4999999999999998e-01   2.3500286691716365e-10
  8.5499999999999998e-01   2.3617060535420347e-10
  8.5999999999999999e-01   2.3733800782824046e-10
  8.6499999999999999e-01   2.3850498577177350e-10
  8.7000000000000000e-01   2.3967145151030023e-10
  8.7500000000000000e-01   2.4083731827275783e-10
  8.8000000000000000e-01   2.4200250020552886e-10
  8.8500000000000001e-01   2.4316691237350547e-10
  8.9000000000000001e-01   2.4433047076020385e-10
  8.9500000000000002e-01   2.4549309227684406e-10
  9.0000000000000002e-01   2.4665469476801580e-10
  9.0500000000000003e-01   2.4781519700940056e-10
  9.1000000000000003e-01   2.4897451870899465e-10
  9.1500000000000004e-01   2.5013258051221103e-10
  9.2000000000000004e-01   2.5128930400162456e-10
  9.2500000000000004e-01   2.5244461169366644e-10
  9.3000000000000005e-01   2.5359842703920773e-10
  9.3500000000000005e-01   2.5475067442417924e-10
  9.4000000000000006e-01   2.5590127916581790e-10
  9.4500000000000006e-01   2.5705016750891755e-10
  9.5000000000000007e-01   2.5819726662450260e-10
  9.5500000000000007e-01   2.5934250460670043e-10
  9.5999999999999996e-01   2.6048581046714642e-10
  9.6499999999999997e-01   2.6162711413056103e-10
  9.6999999999999997e-01   2.6276634643104331e-10
  9.7499999999999998e-01   2.6390343910633786e-10
  9.7999999999999998e-01   2.6503832479123924e-10
  9.8499999999999999e-01   2.6617093701210247e-10
  9.8999999999999999e-01   2.6730121018097405e-10
  9.9500000000000000e-01   2.6842907958823364e-10
  1.0000000000000000e+00   2.6955448139529934e-10
  1.0050000000000001e+00   2.7067735262789658e-10
  1.0100000000000000e+00   2.7179763116853657e-10
  1.0150000000000001e+00   2.7291525574821452e-10
  1.0200000000000000e+00   2.7403016593846809e-10
  1.0249999999999999e+00   2.7514230214349634e-10
  1.0300000000000000e+00   2.7625160559153792e-10
  1.0349999999999999e+00   2.7735801832601291e-10
  1.0400000000000000e+00   2.7846148319696793e-10
  1.0449999999999999e+00   2.7956194385229573e-10
  1.0500000000000000e+00   2.8065934472847369e-10
  1.0549999999999999e+00   2.8175363104134561e-10
  1.0600000000000001e+00   2.8284474877706071e-10
  1.0649999999999999e+00   2.8393264468268325e-10
  1.0700000000000001e+00   2.8501726625662335e-10
  1.0750000000000000e+00   2.8609856173919617e-10
  1.0800000000000001e+00   2.8717648010316221e-10
  1.0850000000000000e+00   2.8825097104406658e-10
  1.0900000000000001e+00   2.8932198497054393e-10
  1.0950000000000000e+00   2.9038947299473677e-10
  1.1000000000000001e+00   2.9145338692267007e-10
  1.1050000000000000e+00   2.9251367924449770e-10
  1.1100000000000001e+00   2.9357030312483228e-10
  1.1150000000000000e+00   2.9462321239315469e-10
  1.1200000000000001e+00   2.9567236153414608e-10
  1.1250000000000000e+00   2.9671770567804868e-10
  1.1300000000000001e+00   2.9775920059109935e-10
  1.1350000000000000e+00   2.9879680266601966e-10
  1.1400000000000001e+00   2.9983046891250111e-10
  1.1450000000000000e+00   3.0086015694773298e-10
  1.1500000000000001e+00   3.0188582498705880e-10
  1.1550000000000000e+00   3.0290743183463709e-10
  1.1599999999999999e+00   3.0392493687417034e-10
  1.1650000000000000e+00   3.0493830005971459e-10
  1.1699999999999999e+00   3.0594748190657837e-10
  1.1750000000000000e+00   3.0695244348227944e-10
  1.1799999999999999e+00   3.0795314639757914e-10
  1.1850000000000001e+00   3.0894955279761589e-10
  1.1899999999999999e+00   3.0994162535312073e-10
  1.1950000000000001e+00   3.1092932725172927e-10
  1.2000000000000000e+00   3.1191262218936314e-10
  1.2050000000000001e+00   3.1289147436173027e-10
  1.2100000000000000e+00   3.1386584845592216e-10
  1.2150000000000001e+00   3.1483570964208343e-10
  1.2200000000000000e+00   3.1580102356521377e-10
  1.2250000000000001e+00   3.1676175633703986e-10
  1.2300000000000000e+00   3.1771787452801944e-10
  1.2350000000000001e+00   3.1866934515942932e-10
  1.2400000000000000e+00   3.1961613569555702e-10
  1.2450000000000001e+00   3.2055821403601078e-10
  1.2500000000000000e+00   3.2149554850812409e-10
  1.2550000000000001e+00   3.2242810785946383e-10
  1.2600000000000000e+00   3.2335586125045759e-10
  1.2650000000000001e+00   3.2427877824711333e-10
  1.2700000000000000e+00   3.2519682881385275e-10
  1.2750000000000001e+00   3.2610998330645038e-10
  1.2800000000000000e+00   3.2701821246507191e-10
  1.2849999999999999e+00   3.2792148740743130e-10
  1.2900000000000000e+00   3.2881977962203761e-10
  1.2949999999999999e+00   3.2971306096155990e-10
  1.3000000000000000e+00   3.3060130363629376e-10
  1.3049999999999999e+00   3.3148448020771961e-10
  1.3100000000000001e+00   3.3236256358218449e-10
  1.3149999999999999e+00   3.3323552700466823e-10
  1.3200000000000001e+00   3.3410334405266512e-10
  1.3250000000000000e+00   3.3496598863015779e-10
  1.3300000000000001e+00   3.3582343496169128e-10
  1.3350000000000000e+00   3.3667565758655862e-10
  1.3400000000000001e+00   3.3752263135306288e-10
  1.3450000000000000e+00   3.3836433141289708e-10
  1.3500000000000001e+00   3.3920073321561445e-10
  1.3550000000000000e+00   3.4003181250318363e-10
  1.3600000000000001e+00   3.4085754530465550e-10
  1.3650000000000000e+00   3.4167790793091084e-10
  1.3700000000000001e+00   3.4249287696950717e-10
  1.3750000000000000e+00   3.4330242927961023e-10
  1.3800000000000001e+00   3.4410654198701993e-10
  1.3850000000000000e+00   3.4490519247928785e-10
  1.3900000000000001e+00   3.4569835840091987e-10
  1.3950000000000000e+00   3.4648601764866256e-10
  1.4000000000000001e+00   3.4726814836687603e-10
  1.4050000000000000e+00   3.4804472894300400e-10
  1.4099999999999999e+00   3.4881573800310348e-10
  1.4150000000000000e+00   3.4958115440748104e-10
  1.4199999999999999e+00   3.5034095724639467e-10
  1.4250000000000000e+00   3.5109512583584373e-10
  1.4299999999999999e+00   3.5184363971343153e-10
  1.4350000000000001e+00   3.5258647863431499e-10
  1.4399999999999999e+00   3.5332362256722128e-10
  1.4450000000000001e+00   3.5405505169055486e-10
  1.4500000000000000e+00   3.5478074638855165e-10
  1.4550000000000001e+00   3.5550068724754554e-10
  1.4600000000000000e+00   3.5621485505227535e-10
  1.4650000000000001e+00   3.5692323078228043e-10
  1.4700000000000000e+00   3.5762579560836127e-10
  1.4750000000000001e+00   3.5832253088911127e-10
  1.4800000000000000e+00   3.5901341816752173e-10
  1.4850000000000001e+00   3.5969843916763673e-10
  1.4900000000000000e+00   3.6037757579131225e-10
  1.4950000000000001e+00   3.6105081011499506e-10
  1.5000000000000000e+00   3.6171812438660384e-10
  1.5050000000000001e+00   3.6237950102245225e-10
  1.5100000000000000e+00   3.6303492260425350e-10
  1.5150000000000001e+00   3.6368437187616413e-10
  1.5200000000000000e+00   3.6432783174191635e-10
  1.5250000000000001e+00   3.6496528526199030e-10
  1.5300000000000000e+00   3.6559671565085353e-10
  1.5350000000000001e+00   3.6622210627426566e-10
  1.5400000000000000e+00   3.6684144064663200e-10
  1.5449999999999999e+00   3.6745470242841917e-10
  1.5500000000000000e+00   3.6806187542362742e-10
  1.5549999999999999e+00   3.6866294357731773e-10
  1.5600000000000001e+00   3.6925789097320357e-10
  1.5649999999999999e+00   3.6984670183127769e-10
  1.5700000000000001e+00   3.7042936050551310e-10
  1.5750000000000000e+00   3.7100585148160498e-10
  1.5800000000000001e+00   3.7157615937477469e-10
  1.5850000000000000e+00   3.7214026892761150e-10
  1.5900000000000001e+00   3.7269816500798251e-10
  1.5950000000000000e+00   3.7324983260698388e-10
  1.6000000000000001e+00   3.7379525683693834e-10
  1.6050000000000000e+00   3.7433442292945164e-10
  1.6100000000000001e+00   3.7486731623351768e-10
  1.6150000000000000e+00   3.7539392221365616e-10
  1.6200000000000001e+00   3.7591422644812008e-10
  1.6250000000000000e+00   3.7642821462713507e-10
  1.6300000000000001e+00   3.7693587255118719e-10
  1.6350000000000000e+00   3.7743718612936315e-10
  1.6400000000000001e+00   3.7793214137773117e-10
  1.6450000000000000e+00   3.7842072441776183e-10
  1.6500000000000001e+00   3.7890292147480930e-10
  1.6550000000000000e+00   3.7937871887661348e-10
  1.6600000000000001e+00   3.7984810305186514e-10
  1.6650000000000000e+00   3.8031106052880154e-10
  1.6699999999999999e+00   3.8076757793385125e-10
  1.6750000000000000e+00   3.8121764199031601e-10
  1.6799999999999999e+00   3.8166123951709495e-10
  1.6850000000000001e+00   3.8209835742745551e-10
  1.6899999999999999e+00   3.8252898272782538e-10
  1.6950000000000001e+00   3.8295310251665629e-10
  1.7000000000000000e+00   3.8337070398328799e-10
  1.7050000000000001e+00   3.8378177440689236e-10
  1.7100000000000000e+00   3.8418630115541353e-10
  1.7150000000000001e+00   3.8458427168458307e-10
  1.7200000000000000e+00   3.8497567353694338e-10
  1.7250000000000001e+00   3.8536049434093039e-10
  1.7300000000000000e+00   3.8573872180997555e-10
  1.7350000000000001e+00   3.8611034374165641e-10
  1.7400000000000000e+00   3.8647534801687047e-10
  1.7450000000000001e+00   3.8683372259905321e-10
  1.7500000000000000e+00   3.8718545553343089e-10
  1.7550000000000001e+00   3.8753053494629836e-10
  1.7600000000000000e+00   3.8786894904433901e-10
  1.7650000000000001e+00   3.8820068611397624e-10
  1.7700000000000000e+00   3.8852573452075360e-10
  1.7750000000000001e+00   3.8884408270875279e-10
  1.7800000000000000e+00   3.8915571920003858e-10
  1.7850000000000001e+00   3.8946063259413682e-10
  1.7900000000000000e+00   3.8975881156754891e-10
  1.7949999999999999e+00   3.9005024487327838e-10
  1.8000000000000000e+00   3.9033492134041980e-10
  1.8049999999999999e+00   3.9061282987374179e-10
  1.8100000000000001e+00   3.9088395945331924e-10
  1.8149999999999999e+00   3.9114829913420175e-10
  1.8200000000000001e+00   3.9140583804607994e-10
  1.8250000000000000e+00   3.9165656539301814e-10
  1.8300000000000001e+00   3.9190047045317936e-10
  1.8350000000000000e+00   3.9213754257860621e-10
  1.8400000000000001e+00   3.9236777119500245e-10
  1.8450000000000000e+00   3.9259114580156455e-10
  1.8500000000000001e+00   3.9280765597082472e-10
  1.8550000000000000e+00   3.9301729134852084e-10
  1.8600000000000001e+00   3.9322004165349355e-10
  1.8650000000000000e+00   3.9341589667760530e-10
  1.8700000000000001e+00   3.9360484628569390e-10
  1.8750000000000000e+00   3.9378688041552870e-10
  1.8800000000000001e+00   3.9396198907781183e-10
  1.8850000000000000e+00   3.9413016235619037e-10
  1.8900000000000001e+00   3.9429139040729115e-10
  1.8950000000000000e+00   3.9444566346078236e-10
  1.9000000000000001e+00   3.9459297181945337e-10
  1.9050000000000000e+00   3.9473330585931361e-10
  1.9100000000000001e+00   3.9486665602971846e-10
  1.9150000000000000e+00   3.9499301285351076e-10
  1.9199999999999999e+00   3.9511236692718031e-10
  1.9250000000000000e+00   3.9522470892105171e-10
  1.9299999999999999e+00   3.9533002957948350e-10
  1.9350000000000001e+00   3.9542831972107993e-10
  1.9399999999999999e+00   3.9551957023893716e-10
  1.9450000000000001e+00   3.9560377210089808e-10
  1.9500000000000000e+00   3.9568091634982250e-10
  1.9550000000000001e+00   3.9575099410388121e-10
  1.9600000000000000e+00   3.9581399655685515e-10
  1.9650000000000001e+00   3.9586991497846651e-10
  1.9700000000000000e+00   3.9591874071471707e-10
  1.9750000000000001e+00   3.9596046518823244e-10
  1.9800000000000000e+00   3.9599507989864854e-10
  1.9850000000000001e+00   3.9602257642297656e-10
