# First column is time, second column is the perturbation of detonation velocity.
  0.0000000000000000e+00   1.0000000000000000e-10
  1.0000000000000000e-02   1.0072936339911258e-10
  2.0000000000000000e-02   1.0112872647430324e-10
  2.9999999999999999e-02   1.0153693081158150e-10
  4.0000000000000001e-02   1.0207849733180902e-10
  5.0000000000000003e-02   1.0276138493985246e-10
  5.9999999999999998e-02   1.0354100411467314e-10
  7.0000000000000007e-02   1.0435941224296415e-10
  8.0000000000000002e-02   1.0516722724470065e-10
  8.9999999999999997e-02   1.0593398179395223e-10
  1.0000000000000001e-01   1.0665089799293786e-10
  1.1000000000000000e-01   1.0732870772200292e-10
  1.2000000000000000e-01   1.0799229784994407e-10
  1.3000000000000000e-01   1.0867357201093620e-10
  1.4000000000000001e-01   1.0940382651978546e-10
  1.4999999999999999e-01   1.1020692828478688e-10
  1.6000000000000000e-01   1.1109447404839508e-10
  1.7000000000000001e-01   1.1206379679708240e-10
  1.7999999999999999e-01   1.1309916091023750e-10
  1.9000000000000000e-01   1.1417583955017246e-10
  2.0000000000000001e-01   1.1526614260183799e-10
  2.0999999999999999e-01   1.1634601973360123e-10
  2.2000000000000000e-01   1.1740072267233366e-10
  2.3000000000000001e-01   1.1842822194977648e-10
  2.3999999999999999e-01   1.1943959564406250e-10
  2.5000000000000000e-01   1.2045632041449313e-10
  2.6000000000000001e-01   1.2150512787796530e-10
  2.7000000000000002e-01   1.2261166465843815e-10
  2.8000000000000003e-01   1.2379447251583623e-10
  2.8999999999999998e-01   1.2506071863796265e-10
  2.9999999999999999e-01   1.2640467729041784e-10
  3.1000000000000000e-01   1.2780929767581677e-10
  3.2000000000000001e-01   1.2925045122342384e-10
  3.3000000000000002e-01   1.3070281388279224e-10
  3.4000000000000002e-01   1.3214595798421539e-10
  3.5000000000000003e-01   1.3356919313993629e-10
  3.5999999999999999e-01   1.3497401146081740e-10
  3.7000000000000000e-01   1.3637357942430950e-10
  3.8000000000000000e-01   1.3778943299746800e-10
  3.9000000000000001e-01   1.3924620108411083e-10
  4.0000000000000002e-01   1.4076564506092822e-10
  4.1000000000000003e-01   1.4236145048701534e-10
  4.1999999999999998e-01   1.4403600923580150e-10
  4.2999999999999999e-01   1.4577993802217603e-10
  4.4000000000000000e-01   1.4757441430936569e-10
  4.5000000000000001e-01   1.4939573450821509e-10
  4.6000000000000002e-01   1.5122097445950915e-10
  4.7000000000000003e-01   1.5303338233382493e-10
  4.7999999999999998e-01   1.5482621567198156e-10
  4.8999999999999999e-01   1.5660412352426623e-10
  5.0000000000000000e-01   1.5838177430086687e-10
  5.1000000000000001e-01   1.6018009362240487e-10
  5.2000000000000002e-01   1.6202104431610387e-10
  5.3000000000000003e-01   1.6392221792948716e-10
  5.4000000000000004e-01   1.6589253592454484e-10
  5.5000000000000004e-01   1.6793007616833221e-10
  5.6000000000000005e-01   1.7002251816900142e-10
  5.7000000000000006e-01   1.7215006690495151e-10
  5.7999999999999996e-01   1.7429012327067441e-10
  5.8999999999999997e-01   1.7642256032862767e-10
  5.9999999999999998e-01   1.7853433425877809e-10
  6.0999999999999999e-01   1.8062233472718568e-10
  6.2000000000000000e-01   1.8269381526397107e-10
  6.3000000000000000e-01   1.8476433237973356e-10
  6.4000000000000001e-01   1.8685371972086372e-10
  6.5000000000000002e-01   1.8898108732901839e-10
  6.6000000000000003e-01   1.9116005669713233e-10
  6.7000000000000004e-01   1.9339537012355605e-10
  6.8000000000000005e-01   1.9568166895007457e-10
  6.9000000000000006e-01   1.9800470552280752e-10
  7.0000000000000007e-01   2.0034466741963112e-10
  7.0999999999999996e-01   2.0268079078893475e-10
  7.1999999999999997e-01   2.0499614159377039e-10
  7.2999999999999998e-01   2.0728141788682849e-10
  7.3999999999999999e-01   2.0953687556488670e-10
  7.5000000000000000e-01   2.1177194108595628e-10
  7.6000000000000001e-01   2.1400263421840181e-10
  7.7000000000000002e-01   2.1624744673728300e-10
  7.8000000000000003e-01   2.1852268435343751e-10
  7.9000000000000004e-01   2.2083839461047224e-10
  8.0000000000000004e-01   2.2319584855942217e-10
  8.1000000000000005e-01   2.2558715933355638e-10
  8.2000000000000006e-01   2.2799710140631359e-10
  8.3000000000000007e-01   2.3040666644486948e-10
  8.3999999999999997e-01   2.3279748179677095e-10
  8.4999999999999998e-01   2.3515602239294262e-10
  8.5999999999999999e-01   2.3747661019013412e-10
  8.7000000000000000e-01   2.3976249868295742e-10
  8.8000000000000000e-01   2.4202480771239539e-10
  8.9000000000000001e-01   2.4427959164603378e-10
  9.0000000000000002e-01   2.4654376733899373e-10
  9.1000000000000003e-01   2.4883089190104705e-10
  9.2000000000000004e-01   2.5114780339702603e-10
  9.3000000000000005e-01   2.5349291778504710e-10
  9.4000000000000006e-01   2.5585656844791941e-10
  9.5000000000000007e-01   2.5822328048387077e-10
  9.5999999999999996e-01   2.6057540997516268e-10
  9.6999999999999997e-01   2.6289725895638969e-10
  9.7999999999999998e-01   2.6517867442201628e-10
  9.8999999999999999e-01   2.6741727614450007e-10
  1.0000000000000000e+00   2.6961879754646337e-10
  1.0100000000000000e+00   2.7179548244927524e-10
  1.0200000000000000e+00   2.7396294683861895e-10
  1.0300000000000000e+00   2.7613627707024002e-10
  1.0400000000000000e+00   2.7832630877709299e-10
  1.0500000000000000e+00   2.8053697520087865e-10
  1.0600000000000001e+00   2.8276434602207541e-10
  1.0700000000000001e+00   2.8499756485389830e-10
  1.0800000000000001e+00   2.8722143616696692e-10
  1.0900000000000001e+00   2.8942002063873952e-10
  1.1000000000000001e+00   2.9158036474494011e-10
  1.1100000000000001e+00   2.9369546961142732e-10
  1.1200000000000001e+00   2.9576579794757797e-10
  1.1300000000000001e+00   2.9779897708780912e-10
  1.1400000000000001e+00   2.9980779260585897e-10
  1.1500000000000001e+00   3.0180697511546954e-10
  1.1599999999999999e+00   3.0380956535456108e-10
  1.1699999999999999e+00   3.0582373345007444e-10
  1.1799999999999999e+00   3.0785080812128885e-10
  1.1899999999999999e+00   3.0988497201050170e-10
  1.2000000000000000e+00   3.1191467440222149e-10
  1.2100000000000000e+00   3.1392540064588299e-10
  1.2200000000000000e+00   3.1590311737691444e-10
  1.2300000000000000e+00   3.1783755963238599e-10
  1.2400000000000000e+00   3.1972457464950948e-10
  1.2500000000000000e+00   3.2156697323835079e-10
  1.2600000000000000e+00   3.2337370415874300e-10
  1.2700000000000000e+00   3.2515757093790026e-10
  1.2800000000000000e+00   3.2693205677531145e-10
  1.2900000000000000e+00   3.2870802943486747e-10
  1.3000000000000000e+00   3.3049111674426518e-10
  1.3100000000000001e+00   3.3228037246034095e-10
  1.3200000000000001e+00   3.3406853519567583e-10
  1.3300000000000001e+00   3.3584379766544296e-10
  1.3400000000000001e+00   3.3759264289645123e-10
  1.3500000000000001e+00   3.3930305428130156e-10
  1.3600000000000001e+00   3.4096732583267799e-10
  1.3700000000000001e+00   3.4258380478364012e-10
  1.3800000000000001e+00   3.4415716303534778e-10
  1.3900000000000001e+00   3.4569715150702177e-10
  1.4000000000000001e+00   3.4721615535684975e-10
  1.4099999999999999e+00   3.4872615108396106e-10
  1.4199999999999999e+00   3.5023580195754461e-10
  1.4299999999999999e+00   3.5174838553183261e-10
  1.4399999999999999e+00   3.5326103873056501e-10
  1.4500000000000000e+00   3.5476548414956440e-10
  1.4600000000000000e+00   3.5625004437898690e-10
  1.4700000000000000e+00   3.5770244520030918e-10
  1.4800000000000000e+00   3.5911272607464881e-10
  1.4900000000000000e+00   3.6047555949548998e-10
  1.5000000000000000e+00   3.6179143141395153e-10
  1.5100000000000000e+00   3.6306641480963981e-10
  1.5200000000000000e+00   3.6431060887466057e-10
  1.5300000000000000e+00   3.6553563489862447e-10
  1.5400000000000000e+00   3.6675180076771512e-10
  1.5500000000000000e+00   3.6796561740741925e-10
  1.5600000000000001e+00   3.6917825734336705e-10
  1.5700000000000001e+00   3.7038531227355068e-10
  1.5800000000000001e+00   3.7157789082375276e-10
  1.5900000000000001e+00   3.7274477617598755e-10
  1.6000000000000001e+00   3.7387511308073151e-10
  1.6100000000000001e+00   3.7496097387501541e-10
  1.6200000000000001e+00   3.7599919054944682e-10
  1.6300000000000001e+00   3.7699202363383381e-10
  1.6400000000000001e+00   3.7794652280464146e-10
  1.6500000000000001e+00   3.7887274930981162e-10
  1.6600000000000001e+00   3.7978130067169946e-10
  1.6699999999999999e+00   3.8068073950175258e-10
  1.6799999999999999e+00   3.8157554341049593e-10
  1.6899999999999999e+00   3.8246506019381559e-10
  1.7000000000000000e+00   3.8334370544613134e-10
  1.7100000000000000e+00   3.8420233913500659e-10
  1.7200000000000000e+00   3.8503047615761193e-10
  1.7300000000000000e+00   3.8581879065649293e-10
  1.7400000000000000e+00   3.8656131053710476e-10
  1.7500000000000000e+00   3.8725678065743410e-10
  1.7600000000000000e+00   3.8790887901922609e-10
  1.7700000000000000e+00   3.8852524907372526e-10
  1.7800000000000000e+00   3.8911559525228101e-10
  1.7900000000000000e+00   3.8968930996399149e-10
  1.8000000000000000e+00   3.9025320642814923e-10
  1.8100000000000001e+00   3.9080989890679566e-10
  1.8200000000000001e+00   3.9135720983156221e-10
  1.8300000000000001e+00   3.9188873247053419e-10
  1.8400000000000001e+00   3.9239539938121295e-10
  1.8500000000000001e+00   3.9286766797388315e-10
  1.8600000000000001e+00   3.9329779177046901e-10
  1.8700000000000001e+00   3.9368163232175381e-10
  1.8800000000000001e+00   3.9401958382648477e-10
  1.8900000000000001e+00   3.9431640054376272e-10
  1.9000000000000001e+00   3.9457998257597310e-10
  1.9100000000000001e+00   3.9481942432863898e-10
  1.9199999999999999e+00   3.9504280257763016e-10
  1.9299999999999999e+00   3.9525523724115251e-10
  1.9399999999999999e+00   3.9545768572498015e-10
  1.9500000000000000e+00   3.9564675004903705e-10
  1.9600000000000000e+00   3.9581552979670674e-10
  1.9700000000000000e+00   3.9595530304493377e-10
  1.9800000000000000e+00   3.9605762197627533e-10
  1.9900000000000000e+00   3.9611631593212336e-10
  2.0000000000000000e+00   3.9612892341858326e-10
  2.0100000000000002e+00   3.9609721754430216e-10
  2.0200000000000000e+00   3.9602671083186411e-10
  2.0300000000000002e+00   3.9592527124604209e-10
  2.0400000000000000e+00   3.9580119241715389e-10
  2.0499999999999998e+00   3.9566118729461092e-10
  2.0600000000000001e+00   3.9550878671043143e-10
  2.0699999999999998e+00   3.9534352111295669e-10
  2.0800000000000001e+00   3.9516107126554918e-10
  2.0899999999999999e+00   3.9495433924422959e-10
  2.1000000000000001e+00   3.9471517130617221e-10
  2.1099999999999999e+00   3.9443631157570559e-10
  2.1200000000000001e+00   3.9411311568508997e-10
  2.1299999999999999e+00   3.9374461710731691e-10
  2.1400000000000001e+00   3.9333369922402385e-10
  2.1499999999999999e+00   3.9288634353752578e-10
  2.1600000000000001e+00   3.9241014606609536e-10
  2.1699999999999999e+00   3.9191246672441263e-10
  2.1800000000000002e+00   3.9139865964765641e-10
  2.1899999999999999e+00   3.9087080721705325e-10
  2.2000000000000002e+00   3.9032725442880605e-10
  2.2100000000000000e+00   3.8976304472982304e-10
  2.2200000000000002e+00   3.8917114124661197e-10
  2.2300000000000000e+00   3.8854413075412989e-10
  2.2400000000000002e+00   3.8787599605399225e-10
  2.2500000000000000e+00   3.8716353142832445e-10
  2.2600000000000002e+00   3.8640706683459035e-10
  2.2700000000000000e+00   3.8561033639102214e-10
  2.2800000000000002e+00   3.8477953376352942e-10
  2.2900000000000000e+00   3.8392179123326587e-10
  2.3000000000000003e+00   3.8304345416716492e-10
  2.3100000000000001e+00   3.8214856678440543e-10
  2.3199999999999998e+00   3.8123792911047313e-10
  2.3300000000000001e+00   3.8030894354911570e-10
  2.3399999999999999e+00   3.7935627756794553e-10
  2.3500000000000001e+00   3.7837317320572468e-10
  2.3599999999999999e+00   3.7735308140592571e-10
  2.3700000000000001e+00   3.7629122557215331e-10
  2.3799999999999999e+00   3.7518572082743966e-10
  2.3900000000000001e+00   3.7403798670951241e-10
  2.3999999999999999e+00   3.7285236364791906e-10
  2.4100000000000001e+00   3.7163503541191602e-10
  2.4199999999999999e+00   3.7039252459790722e-10
  2.4300000000000002e+00   3.6913012700641140e-10
  2.4399999999999999e+00   3.6785066064309826e-10
  2.4500000000000002e+00   3.6655382485338190e-10
  2.4600000000000000e+00   3.6523631514777178e-10
  2.4700000000000002e+00   3.6389265641166898e-10
  2.4800000000000000e+00   3.6251654563822213e-10
  2.4900000000000002e+00   3.6110237601354239e-10
  2.5000000000000000e+00   3.5964657501398260e-10
  2.5100000000000002e+00   3.5814843848515264e-10
  2.5200000000000000e+00   3.5661026750426838e-10
  2.5300000000000002e+00   3.5503678430588477e-10
  2.5400000000000000e+00   3.5343397650949917e-10
  2.5500000000000003e+00   3.5180765386050628e-10
  2.5600000000000001e+00   3.5016206685327950e-10
  2.5699999999999998e+00   3.4849891724929880e-10
  2.5800000000000001e+00   3.4681699236690446e-10
  2.5899999999999999e+00   3.4511250262709738e-10
  2.6000000000000001e+00   3.4338003239127620e-10
  2.6099999999999999e+00   3.4161386842307911e-10
  2.6200000000000001e+00   3.3980938293249550e-10
  2.6299999999999999e+00   3.3796413928325423e-10
  2.6400000000000001e+00   3.3607845917082811e-10
  2.6499999999999999e+00   3.3415532243710699e-10
  2.6600000000000001e+00   3.3219963218123165e-10
  2.6699999999999999e+00   3.3021702940139356e-10
  2.6800000000000002e+00   3.2821254688895131e-10
  2.6899999999999999e+00   3.2618942683041531e-10
  2.7000000000000002e+00   3.2414838315513981e-10
  2.7100000000000000e+00   3.2208747950939702e-10
  2.7200000000000002e+00   3.2000264408793750e-10
  2.7300000000000000e+00   3.1788868976317429e-10
  2.7400000000000002e+00   3.1574058865104371e-10
  2.7500000000000000e+00   3.1355469257692969e-10
  2.7600000000000002e+00   3.1132960786684391e-10
  2.7700000000000000e+00   3.0906651945724379e-10
  2.7800000000000002e+00   3.0676889385623292e-10
  2.7900000000000000e+00   3.0444164015698058e-10
  2.8000000000000003e+00   3.0208993706191798e-10
  2.8100000000000001e+00   2.9971801116011843e-10
  2.8199999999999998e+00   2.9732815967055378e-10
  2.8300000000000001e+00   2.9492024851188241e-10
  2.8399999999999999e+00   2.9249179973023608e-10
  2.8500000000000001e+00   2.9003863969581948e-10
  2.8599999999999999e+00   2.8755594555682611e-10
  2.8700000000000001e+00   2.8503943417409164e-10
  2.8799999999999999e+00   2.8248640695938484e-10
  2.8900000000000001e+00   2.7989640226936285e-10
  2.8999999999999999e+00   2.7727130421459556e-10
  2.9100000000000001e+00   2.7461488888359012e-10
  2.9199999999999999e+00   2.7193192395673996e-10
  2.9300000000000002e+00   2.6922704313382520e-10
  2.9399999999999999e+00   2.6650366785154386e-10
  2.9500000000000002e+00   2.6376323390460418e-10
  2.9600000000000000e+00   2.6100490422043796e-10
  2.9700000000000002e+00   2.5822583025966940e-10
  2.9800000000000000e+00   2.5542189231788051e-10
  2.9900000000000002e+00   2.5258873522171238e-10
  3.0000000000000000e+00   2.4972284755360467e-10
  3.0100000000000002e+00   2.4682242538532325e-10
  3.0200000000000000e+00   2.4388781646947649e-10
  3.0300000000000002e+00   2.4092144395983455e-10
  3.0400000000000000e+00   2.3792723468457304e-10
  3.0500000000000003e+00   2.3490969532170605e-10
  3.0600000000000001e+00   2.3187286228539172e-10
  3.0700000000000003e+00   2.2881937844368627e-10
  3.0800000000000001e+00   2.2574991612806994e-10
  3.0899999999999999e+00   2.2266308011528099e-10
  3.1000000000000001e+00   2.1955580758204053e-10
  3.1099999999999999e+00   2.1642416279693305e-10
  3.1200000000000001e+00   2.1326433110904915e-10
  3.1299999999999999e+00   2.1007357160275124e-10
  3.1400000000000001e+00   2.0685090081085459e-10
  3.1499999999999999e+00   2.0359734724007974e-10
  3.1600000000000001e+00   2.0031572132545493e-10
  3.1699999999999999e+00   1.9700996219491577e-10
  3.1800000000000002e+00   1.9368422317419954e-10
  3.1899999999999999e+00   1.9034191842631927e-10
  3.2000000000000002e+00   1.8698495953982824e-10
  3.2100000000000000e+00   1.8361336242003357e-10
  3.2200000000000002e+00   1.8022531381507212e-10
  3.2300000000000000e+00   1.7681767557506534e-10
  3.2400000000000002e+00   1.7338680019816541e-10
  3.2500000000000000e+00   1.6992945831175544e-10
  3.2600000000000002e+00   1.6644365451903805e-10
  3.2700000000000000e+00   1.6292913767837042e-10
  3.2800000000000002e+00   1.5938748737817212e-10
  3.2900000000000000e+00   1.5582176139844648e-10
  3.3000000000000003e+00   1.5223579428269735e-10
  3.3100000000000001e+00   1.4863331952623446e-10
  3.3200000000000003e+00   1.4501712788751344e-10
  3.3300000000000001e+00   1.4138846291918312e-10
  3.3399999999999999e+00   1.3774679539484865e-10
  3.3500000000000001e+00   1.3409002572972362e-10
  3.3599999999999999e+00   1.3041506035944238e-10
  3.3700000000000001e+00   1.2671861918700999e-10
  3.3799999999999999e+00   1.2299807772668743e-10
  3.3900000000000001e+00   1.1925214181396606e-10
  3.3999999999999999e+00   1.1548119547242124e-10
  3.4100000000000001e+00   1.1168724287062445e-10
  3.4199999999999999e+00   1.0787346353654007e-10
  3.4300000000000002e+00   1.0404349236536411e-10
  3.4399999999999999e+00   1.0020060041528000e-10
  3.4500000000000002e+00   9.6346973959862243e-11
  3.4600000000000000e+00   9.2483263171324075e-11
  3.4700000000000002e+00   8.8608505012209174e-11
  3.4800000000000000e+00   8.4720433939492098e-11
  3.4900000000000002e+00   8.0816100974697440e-11
  3.5000000000000000e+00   7.6892648877363446e-11
  3.5100000000000002e+00   7.2948055752314808e-11
  3.5200000000000000e+00   6.8981669417359320e-11
  3.5300000000000002e+00   6.4994407273748862e-11
  3.5400000000000000e+00   6.0988578153751557e-11
  3.5500000000000003e+00   5.6967373714031598e-11
  3.5600000000000001e+00   5.2934155463350331e-11
  3.5700000000000003e+00   4.8891710817612941e-11
  3.5800000000000001e+00   4.4841656741301090e-11
  3.5899999999999999e+00   4.0784131871768627e-11
  3.6000000000000001e+00   3.6717847107323771e-11
  3.6099999999999999e+00   3.2640477886115720e-11
  3.6200000000000001e+00   2.8549299772156869e-11
  3.6299999999999999e+00   2.4441911974765092e-11
  3.6400000000000001e+00   2.0316874386641488e-11
  3.6499999999999999e+00   1.6174106700989366e-11
  3.6600000000000001e+00   1.2014957111834584e-11
  3.6699999999999999e+00   7.8419284311534933e-12
  3.6800000000000002e+00   3.6581316564692568e-12
  3.6899999999999999e+00  -5.3339861634676601e-13
  3.7000000000000002e+00  -4.7303611999101995e-12
  3.7100000000000000e+00  -8.9316607635205619e-12
  3.7200000000000002e+00  -1.3137584980953644e-11
  3.7300000000000000e+00  -1.7349647792779444e-11
  3.7400000000000002e+00  -2.1570140658367761e-11
  3.7500000000000000e+00  -2.5801503059964128e-11
  3.7600000000000002e+00  -3.0045665362329065e-11
  3.7700000000000000e+00  -3.4303521763895807e-11
  3.7800000000000002e+00  -3.8574657872987919e-11
  3.7900000000000000e+00  -4.2857394847891912e-11
  3.8000000000000003e+00  -4.7149135424419210e-11
  3.8100000000000001e+00  -5.1446925048880664e-11
  3.8200000000000003e+00  -5.5748090947571791e-11
  3.8300000000000001e+00  -6.0050805080570049e-11
  3.8399999999999999e+00  -6.4354437156143561e-11
  3.8500000000000001e+00  -6.8659615896125305e-11
  3.8599999999999999e+00  -7.2967987673182061e-11
  3.8700000000000001e+00  -7.7281734255851070e-11
  3.8799999999999999e+00  -8.1602968284768289e-11
  3.8900000000000001e+00  -8.5933152844408902e-11
  3.8999999999999999e+00  -9.0272683823893429e-11
  3.9100000000000001e+00  -9.4620732974801411e-11
  3.9199999999999999e+00  -9.8975385870774732e-11
  3.9300000000000002e+00  -1.0333403790627727e-10
  3.9399999999999999e+00  -1.0769395015506518e-10
  3.9500000000000002e+00  -1.1205282990037149e-10
  3.9600000000000000e+00  -1.1640929649568793e-10
  3.9700000000000002e+00  -1.2076312248539898e-10
